Time,Energy,Searching,AverageEffort
1,-72.20771,6,1
2,-110.2244,6,1
3,-146.8242,6,1
4,-185.4075,6,1
5,-222.5474,6,1
6,-260.669,6,1
7,-300.8207,6,1
8,-345.2176,6,1
9,-389.0816,6,1
10,-441.3118,6,1
11,-491.8107,6,1
12,-540.6209,6,1
13,-589.8382,6,1
14,-638.3729,6,1
15,-691.7932,6,1
16,-740.6265,6,1
17,-793.4946,6,1
18,-845.1815,6,1
19,-891.2224,6,1
20,-936.0136,6,1
21,-983.4465,6,1
22,-1033.535,6,1
23,-1085.924,6,1
24,-1137.294,6,1
25,-1186.025,6,1
26,-1237.975,6,1
27,-1289.116,6,1
28,-1337.685,6,1
29,-1389.238,6,1
30,-1438.662,6,1
31,-1490.353,6,1
32,-1544.241,6,1
33,-1596.443,6,1
34,-1669.363,6,1
35,-1717.41,6,1
36,-1768.04,6,1
37,-1818.689,6,1
38,-1863.822,6,1
39,-1927.636,6,1
40,-1975.932,6,1
41,-2027.109,6,1
42,-2079.577,6,1
43,-2131.921,6,1
44,-2183.035,6,1
45,-2231.775,6,1
46,-2278.339,6,1
47,-2329.883,6,1
48,-2379.04,6,1
49,-2430.602,6,1
50,-2480.083,6,1
51,-2530.3,6,1
52,-2579.931,6,1
53,-2627.516,6,1
54,-2675.375,6,1
55,-2725.191,6,1
56,-2775.969,6,1
57,-2826.448,6,1
58,-2875.455,6,1
59,-2926.95,6,1
60,-2976.515,6,1
61,-3028.345,6,1
62,-3079.239,6,1
63,-3131.35,6,1
64,-3182.765,6,1
65,-3231.337,6,1
66,-3280.89,6,1
67,-3332.032,6,1
68,-3384.107,6,1
69,-3432.529,6,1
70,-3481.702,6,1
71,-3529.761,6,1
72,-3576.868,6,1
73,-3624.761,6,1
74,-3677.321,6,1
75,-3728.374,6,1
76,-3776.572,6,1
77,-3825.06,6,1
78,-3875.306,6,1
79,-3927.613,6,1
80,-3976.509,6,1
81,-4026.147,6,1
82,-4076.933,6,1
83,-4126.181,6,1
84,-4175.858,6,1
85,-4311.897,6,1
86,-4369.187,6,1
87,-4419.665,6,1
88,-4472.421,6,1
89,-4525.194,6,1
90,-4577.769,6,1
91,-4627.231,6,1
92,-4680.815,6,1
93,-4732.943,6,1
94,-4784.179,6,1
95,-4836.705,6,1
96,-4889.845,6,1
97,-4939.617,6,1
98,-4988.543,6,1
99,-5041.365,6,1
100,-5088.387,6,1
101,-5136.511,6,1
102,-5184.468,6,1
103,-5234.001,6,1
104,-5304.11,6,1
105,-5353.684,6,1
106,-5407.224,6,1
107,-5455.677,6,1
108,-5504.581,6,1
109,-5553.535,6,1
110,-5605.163,6,1
111,-5654.76,6,1
112,-5702.835,6,1
113,-5751.959,6,1
114,-5800.27,6,1
115,-5852.793,6,1
116,-5905.274,6,1
117,-5954.873,6,1
118,-6001.261,6,1
119,-6044.549,6,1
120,-6092.17,6,1
121,-6140.607,6,1
122,-6192.182,6,1
123,-6241.003,6,1
124,-6293.563,6,1
125,-6345.624,6,1
126,-6394.783,6,1
127,-6446.487,6,1
128,-6498.997,6,1
129,-6548.182,6,1
130,-6603.412,6,1
131,-6655.273,6,1
132,-6704.42,6,1
133,-6756.815,6,1
134,-6807.22,6,1
135,-6855.692,6,1
136,-6906.657,6,1
137,-6959.283,6,1
138,-7007.683,6,1
139,-7058.446,6,1
140,-7104.836,6,1
141,-7154.013,6,1
142,-7203.833,6,1
143,-7254.521,6,1
144,-7310.162,6,1
145,-7362.398,6,1
146,-7412.959,6,1
147,-7461.882,6,1
148,-7515.324,6,1
149,-7563.658,6,1
150,-7616.953,6,1
151,-7676.005,6,1
152,-7724.616,6,1
153,-7776.489,6,1
154,-7836.39,6,1
155,-7889.542,6,1
156,-7941.973,6,1
157,-7998.74,6,1
158,-8061.958,6,1
159,-8112.908,6,1
160,-8231.392,6,1
161,-8281.282,6,1
162,-8332.559,6,1
163,-8384.595,6,1
164,-8436.249,6,1
165,-8484.979,6,1
166,-8537.792,6,1
167,-8586.305,6,1
168,-8636.567,6,1
169,-8689.158,6,1
170,-8741.192,6,1
171,-8793.504,6,1
172,-8844.928,6,1
173,-8897.592,6,1
174,-8948.734,6,1
175,-9003.762,6,1
176,-9055.209,6,1
177,-9109.284,6,1
178,-9164.396,6,1
179,-9219.306,6,1
180,-9273.316,6,1
181,-9326.495,6,1
182,-7377.001,6,1.001667
183,-7438.902,6,1.001667
184,-7483.339,6,1.001667
185,-7527.966,6,1.001667
186,-7570.62,6,1.001667
187,-7614.597,6,1.001667
188,-7657.597,6,1.001667
189,-7702.114,6,1.001667
190,-7747.107,6,1.001667
191,-7790.419,6,1.001667
192,-7834.722,6,1.001667
193,-7877.34,6,1.001667
194,-7919.547,6,1.001667
195,-7958.995,6,1.001667
196,-8000.863,6,1.001667
197,-8044.131,6,1.001667
198,-8086.021,6,1.001667
199,-8127.372,6,1.001667
200,-8166.138,6,1.001667
201,-8206.781,6,1.001667
202,-8248.589,6,1.001667
203,-8285.274,6,1.001667
204,-8321.372,6,1.001667
205,-8357.964,6,1.001667
206,-8397.597,6,1.001667
207,-8438.759,6,1.001667
208,-8480.608,6,1.001667
209,-8518.721,6,1.001667
210,-8556.914,6,1.001667
211,-8598.597,6,1.001667
212,-8640.533,6,1.001667
213,-8680.047,6,1.001667
214,-8721.867,6,1.001667
215,-8762.451,6,1.001667
216,-8802.918,6,1.001667
217,-8843.979,6,1.001667
218,-8884.773,6,1.001667
219,-8924.407,6,1.001667
220,-8965.087,6,1.001667
221,-9005.261,6,1.001667
222,-9034.7,4,0.9983333
223,-9063.811,4,0.9983333
224,-9094.611,4,0.9983333
225,-9123.121,4,0.9983333
226,-9151.706,4,0.9983333
227,-9181.352,4,0.9983333
228,-9211.567,4,0.9983333
229,-9238.978,3,0.9966667
230,-9262.579,3,0.9966667
231,-9286.139,2,0.9950001
232,-9304.881,2,0.9950001
233,-9324.318,2,0.9950001
234,-9342.969,2,0.9950001
235,-9362.158,2,0.9950001
236,-9381.816,2,0.9950001
237,-9400.778,2,0.9950001
238,-9419.751,2,0.9950001
239,-9438.896,2,0.9950001
240,-9458.19,2,0.9950001
241,-9473.026,1,0.9933333
242,-9486.508,1,0.9933333
243,-9500.56,1,0.9933333
244,-9513.723,1,0.9933333
245,-9527.862,1,0.9933333
246,-9542.522,1,0.9933333
247,-9555.64,1,0.9933333
248,-9569.512,1,0.9933333
249,-9582.884,1,0.9933333
250,-9597.012,1,0.9933333
251,-9610.301,1,0.9933333
252,-9624.534,1,0.9933333
253,-9637.937,1,0.9933333
254,-9652.199,1,0.9933333
255,-9665.439,1,0.9933333
256,-9678.969,1,0.9933333
257,-9692.547,1,0.9933333
258,-9706.262,1,0.9933333
259,-9719.877,1,0.9933333
260,-9733.898,1,0.9933333
261,-9747.112,1,0.9933333
262,-9760.89,1,0.9933333
263,-9774.324,1,0.9933333
264,-9788.342,1,0.9933333
265,-9801.438,1,0.9933333
266,-9815.257,1,0.9933333
267,-9830.267,1,0.9933333
268,-9844.518,1,0.9933333
269,-9857.704,1,0.9933333
270,-9870.935,1,0.9933333
271,-9883.829,1,0.9933333
272,-9895.745,1,0.9933333
273,-9908.652,1,0.9933333
274,-9921.979,1,0.9933333
275,-9975.556,1,0.9933333
276,-9990.093,1,0.9933333
277,-10004.14,1,0.9933333
278,-10018.01,1,0.9933333
279,-10031.91,1,0.9933333
280,-10047.39,1,0.9933333
281,-10061.36,1,0.9933333
282,-10075.84,1,0.9933333
283,-10091.1,1,0.9933333
284,-10105.28,1,0.9933333
285,-10118.8,1,0.9933333
286,-10132.73,1,0.9933333
287,-10146.75,1,0.9933333
288,-10160.41,1,0.9933333
289,-10174.86,1,0.9933333
290,-10188.12,1,0.9933333
291,-10202.27,1,0.9933333
292,-10215.77,1,0.9933333
293,-10230.07,1,0.9933333
294,-10244.33,1,0.9933333
295,-10259.31,1,0.9933333
296,-10272.51,1,0.9933333
297,-10286.53,1,0.9933333
298,-10299.78,1,0.9933333
299,-10313.73,1,0.9933333
300,-10327.2,1,0.9933333
301,-10341.49,1,0.9933333
302,-10354.6,1,0.9933333
303,-10368.36,1,0.9933333
304,-10381.67,1,0.9933333
305,-10395.6,1,0.9933333
306,-10408.88,1,0.9933333
307,-10422.4,1,0.9933333
308,-10436.63,1,0.9933333
309,-10450.2,1,0.9933333
310,-10463.84,1,0.9933333
311,-10477.39,1,0.9933333
312,-10490.51,1,0.9933333
313,-10503.65,1,0.9933333
314,-10517.17,1,0.9933333
315,-10531.49,1,0.9933333
316,-10544.87,1,0.9933333
317,-10558.17,1,0.9933333
318,-10571.5,1,0.9933333
319,-10585.16,1,0.9933333
320,-10599.12,1,0.9933333
321,-10614.46,1,0.9933333
322,-10627.84,1,0.9933333
323,-10641.28,1,0.9933333
324,-10654.87,1,0.9933333
325,-10669.03,1,0.9933333
326,-10682.13,1,0.9933333
327,-10695.76,1,0.9933333
328,-10709.48,1,0.9933333
329,-10726.43,1,0.9933333
330,-10739.83,1,0.9933333
331,-10753.54,1,0.9933333
332,-10768.14,1,0.9933333
333,-10782.12,1,0.9933333
334,-10796.77,1,0.9933333
335,-10810.25,1,0.9933333
336,-10825.9,2,0.9933333
337,-10845.64,2,0.9933333
338,-10864.92,2,0.9933333
339,-10883.75,2,0.9933333
340,-10901.8,2,0.9933333
341,-10920.32,2,0.9933333
342,-10938.5,2,0.9933333
343,-10956.74,2,0.9933333
344,-10977.68,2,0.9933333
345,-10999.5,2,0.9933333
346,-11020.92,2,0.9933333
347,-11041.9,2,0.9933333
348,-11063.31,2,0.9933333
349,-11084.4,2,0.9933333
350,-11110,2,0.9933333
351,-11136.81,2,0.9933333
352,-11161.15,2,0.9933333
353,-11185.87,2,0.9933333
354,-11210.79,2,0.9933333
355,-11237.15,2,0.9933333
356,-11261.2,2,0.9933333
357,-11286.27,2,0.9933333
358,-11310.54,2,0.9933333
359,-11335.7,2,0.9933333
360,-11361.46,2,0.9933333
361,-11387.59,2,0.9933333
362,-11414.33,2,0.9933333
363,-11440.78,2,0.9933333
364,-11466.84,2,0.9933333
365,-11493.07,2,0.9933333
366,-11518.93,2,0.9933333
367,-11543.02,2,0.9933333
368,-11568.11,2,0.9933333
369,-11593.52,2,0.9933333
370,-11624.76,3,0.9933333
371,-11655.6,3,0.9933333
372,-11685.16,3,0.9933333
373,-11715.88,3,0.9933333
374,-11752.63,4,0.9933333
375,-11789.29,4,0.9933333
376,-11824.35,4,0.9933333
377,-11858.32,4,0.9933333
378,-11896.39,4,0.9933333
379,-11932.47,4,0.9933333
380,-9963.281,4,0.9950001
381,-9993.9,4,0.9950001
382,-10026.13,4,0.9950001
383,-10056.62,4,0.9950001
384,-10090.91,4,0.9950001
385,-10125.75,4,0.9950001
386,-10158.77,4,0.9950001
387,-10192.74,4,0.9950001
388,-10225.84,4,0.9950001
389,-10260.98,4,0.9950001
390,-10295.04,4,0.9950001
391,-10332.47,4,0.9950001
392,-10370.89,5,0.9950001
393,-10411.37,5,0.9950001
394,-10454.09,5,0.9950001
395,-10497.17,5,0.9950001
396,-10539.55,6,0.9950001
397,-10585.26,6,0.9950001
398,-10631.35,6,0.9950001
399,-10677.54,6,0.9950001
400,-10722.32,6,0.9950001
401,-10767.23,6,0.9950001
402,-10813.16,6,0.9950001
403,-10857.03,6,0.9950001
404,-10903.73,6,0.9950001
405,-10960.11,6,0.9950001
406,-11014.45,6,0.9950001
407,-11071.56,6,0.9950001
408,-11128.47,6,0.9950001
409,-11186.19,6,0.9950001
410,-11243.21,6,0.9950001
411,-11296,6,0.9950001
412,-11349.77,6,0.9950001
413,-11404.2,6,0.9950001
414,-11458.75,6,0.9950001
415,-11513.15,6,0.9950001
416,-11567,6,0.9950001
417,-11620.61,6,0.9950001
418,-11677.03,6,0.9950001
419,-11733.39,6,0.9950001
420,-11785.82,6,0.9950001
421,-11837.69,6,0.9950001
422,-11897.06,6,0.9950001
423,-11950.1,6,0.9950001
424,-12002.86,6,0.9950001
425,-12058.78,6,0.9950001
426,-12115.01,6,0.9950001
427,-12171.86,6,0.9950001
428,-12223.67,6,0.9950001
429,-12276.03,6,0.9950001
430,-12329.88,6,0.9950001
431,-10374.43,5,0.9966666
432,-10418.55,5,0.9966666
433,-10462.88,5,0.9966666
434,-10507.21,5,0.9966666
435,-10548.48,5,0.9966666
436,-10592.71,5,0.9966666
437,-10636.71,5,0.9966666
438,-10681.91,5,0.9966666
439,-10728.02,5,0.9966666
440,-10778.4,5,0.9966666
441,-10830.23,5,0.9966666
442,-10884.49,5,0.9966666
443,-10937.9,5,0.9966666
444,-10988.1,5,0.9966666
445,-11038.46,5,0.9966666
446,-11087.41,5,0.9966666
447,-11136.28,5,0.9966666
448,-11191.35,5,0.9966666
449,-11242.31,5,0.9966666
450,-11291.13,5,0.9966666
451,-11342.43,5,0.9966666
452,-11399.7,5,0.9966666
453,-11452.69,5,0.9966666
454,-11505.77,5,0.9966666
455,-11556.04,5,0.9966666
456,-11610.8,5,0.9966666
457,-9658.843,4,0.9983333
458,-9704.531,4,0.9983333
459,-9750.845,4,0.9983333
460,-9797.372,4,0.9983333
461,-9844.167,4,0.9983333
462,-9886.264,4,0.9983333
463,-9930.175,4,0.9983333
464,-9972.893,4,0.9983333
465,-10011.27,4,0.9983333
466,-10047.72,4,0.9983333
467,-10090.55,4,0.9983333
468,-10134.96,4,0.9983333
469,-10179.35,4,0.9983333
470,-10223.25,4,0.9983333
471,-10265.1,4,0.9983333
472,-10311.43,4,0.9983333
473,-10356.71,4,0.9983333
474,-8392.661,3,1
475,-8424.17,3,1
476,-8455.005,3,1
477,-8488.716,3,1
478,-6511.977,2,1.001667
479,-6533.865,2,1.001667
480,-6554.386,2,1.001667
481,-6575.278,2,1.001667
482,-6601.458,3,1.001667
483,-6627.055,3,1.001667
484,-6657.566,3,1.001667
485,-6683.699,3,1.001667
486,-6710.215,3,1.001667
487,-6735.692,3,1.001667
488,-6760.784,3,1.001667
489,-6787.915,3,1.001667
490,-6815.163,3,1.001667
491,-6845.327,3,1.001667
492,-6878.837,3,1.001667
493,-6912.314,3,1.001667
494,-6944.509,3,1.001667
495,-6977.619,3,1.001667
496,-7010.492,3,1.001667
497,-7042.537,3,1.001667
498,-7073.901,3,1.001667
499,-7108.74,3,1.001667
500,-7146.29,3,1.001667
501,-7181.789,3,1.001667
502,-7217.546,3,1.001667
503,-7252.735,3,1.001667
504,-7291.888,3,1.001667
505,-7330.185,3,1.001667
506,-5365.68,3,1.003333
507,-5396.372,3,1.003333
508,-5427.087,3,1.003333
509,-5458.938,3,1.003333
510,-5490.588,3,1.003333
511,-5521.349,3,1.003333
512,-5552.349,3,1.003333
513,-5582.997,3,1.003333
514,-5615.042,3,1.003333
515,-5649.88,3,1.003333
516,-5681.189,3,1.003333
517,-5713.33,3,1.003333
518,-5745.652,3,1.003333
519,-5780.93,3,1.003333
520,-5814.807,3,1.003333
521,-5844.356,3,1.003333
522,-5868.944,3,1.003333
523,-5894.722,3,1.003333
524,-5928.556,3,1.003333
525,-5961.787,3,1.003333
526,-5994.663,3,1.003333
527,-6028.839,3,1.003333
528,-6062.243,3,1.003333
529,-6095.872,3,1.003333
530,-6129.728,3,1.003333
531,-6163.465,3,1.003333
532,-6196.069,3,1.003333
533,-6227.954,3,1.003333
534,-6263.189,3,1.003333
535,-6296.573,3,1.003333
536,-6330.48,3,1.003333
537,-6363.658,3,1.003333
538,-4391.92,2,1.005
539,-4412.764,2,1.005
540,-4434.547,2,1.005
541,-4456.352,2,1.005
542,-4477.981,2,1.005
543,-4499.412,2,1.005
544,-4521.396,2,1.005
545,-4542.771,2,1.005
546,-4565.069,2,1.005
547,-4588.242,2,1.005
548,-4613.928,2,1.005
549,-4640.673,2,1.005
550,-4666.86,2,1.005
551,-4693.365,2,1.005
552,-4719.148,2,1.005
553,-4745.729,2,1.005
554,-4772.176,2,1.005
555,-4798.045,2,1.005
556,-4833.592,2,1.005
557,-4857.982,2,1.005
558,-4883.19,2,1.005
559,-4908.378,2,1.005
560,-4935.481,2,1.005
561,-4960.958,2,1.005
562,-4987.867,2,1.005
563,-5012.29,2,1.005
564,-5037.326,2,1.005
565,-5063.686,2,1.005
566,-5089.456,2,1.005
567,-5114.059,2,1.005
568,-3133.805,2,1.006667
569,-3152.781,2,1.006667
570,-3171.518,2,1.006667
571,-3190.175,2,1.006667
572,-3215.149,3,1.006667
573,-3243.059,4,1.006667
574,-3271.429,4,1.006667
575,-3300.927,4,1.006667
576,-3332.568,4,1.006667
577,-3363.813,5,1.006667
578,-3402.806,5,1.006667
579,-3445.078,5,1.006667
580,-3498.265,5,1.006667
581,-3537.473,5,1.006667
582,-3580.122,5,1.006667
583,-3620.286,5,1.006667
584,-3660.048,5,1.006667
585,-3703.198,5,1.006667
586,-3745.238,5,1.006667
587,-3786.458,5,1.006667
588,-3826.772,5,1.006667
589,-3870.674,5,1.006667
590,-3915.285,5,1.006667
591,-3959.508,5,1.006667
592,-4003.976,5,1.006667
593,-4046.345,5,1.006667
594,-4087.625,5,1.006667
595,-4127.389,5,1.006667
596,-4170.686,5,1.006667
597,-4213.022,5,1.006667
598,-4256.206,5,1.006667
599,-4298.226,5,1.006667
600,-4343.146,5,1.006667
601,-4385.677,5,1.006667
602,-4429.076,5,1.006667
603,-4471.105,5,1.006667
604,-4516.099,5,1.006667
605,-4560.454,5,1.006667
606,-4604.898,5,1.006667
607,-4650.27,5,1.006667
608,-4692,5,1.006667
609,-4733.719,5,1.006667
610,-4777.007,5,1.006667
611,-4822.289,5,1.006667
612,-4865.581,5,1.006667
613,-4910.242,5,1.006667
614,-4953.15,5,1.006667
615,-4997.64,5,1.006667
616,-5040.706,5,1.006667
617,-5083.807,5,1.006667
618,-5126.178,5,1.006667
619,-5169.818,5,1.006667
620,-5215.818,5,1.006667
621,-5259.439,5,1.006667
622,-5303.211,5,1.006667
623,-5347.17,5,1.006667
624,-5392.187,5,1.006667
625,-5436.197,5,1.006667
626,-5479.687,5,1.006667
627,-5522.495,5,1.006667
628,-5564.856,5,1.006667
629,-5610.982,5,1.006667
630,-5655.018,5,1.006667
631,-5705.929,5,1.006667
632,-5745.879,5,1.006667
633,-5792.771,5,1.006667
634,-5836.113,5,1.006667
635,-5881.099,5,1.006667
636,-5924.924,5,1.006667
637,-5966.639,5,1.006667
638,-6011.573,5,1.006667
639,-6055.459,5,1.006667
640,-6100.849,5,1.006667
641,-6145.761,5,1.006667
642,-6192.984,5,1.006667
643,-6243.007,5,1.006667
644,-6290.76,5,1.006667
645,-6338.45,5,1.006667
646,-6383.937,5,1.006667
647,-6432.419,5,1.006667
648,-6480.158,5,1.006667
649,-6526.431,5,1.006667
650,-6575.326,5,1.006667
651,-6625.076,5,1.006667
652,-6673.801,5,1.006667
653,-6723.717,5,1.006667
654,-4765.072,4,1.008333
655,-4799.626,4,1.008333
656,-4836.985,4,1.008333
657,-4872.828,4,1.008333
658,-4906.965,4,1.008333
659,-4940.797,4,1.008333
660,-4977.509,4,1.008333
661,-5012.148,4,1.008333
662,-5050.214,4,1.008333
663,-5088.949,4,1.008333
664,-5123.973,4,1.008333
665,-5160.537,4,1.008333
666,-5197.935,4,1.008333
667,-5232.65,4,1.008333
668,-5266.63,4,1.008333
669,-5300.257,4,1.008333
670,-5332.978,4,1.008333
671,-5367.788,4,1.008333
672,-5404.34,4,1.008333
673,-5443.216,4,1.008333
674,-5481.225,4,1.008333
675,-5520.572,4,1.008333
676,-5559.068,4,1.008333
677,-5592.004,4,1.008333
678,-5621.233,4,1.008333
679,-5659.194,4,1.008333
680,-5697.625,4,1.008333
681,-5737.316,4,1.008333
682,-5781.208,5,1.008333
683,-5825.308,5,1.008333
684,-5869.787,5,1.008333
685,-5914.3,5,1.008333
686,-5957.689,5,1.008333
687,-5993.524,5,1.008333
688,-6035.561,5,1.008333
689,-6081.414,5,1.008333
690,-6127.247,5,1.008333
691,-6175.02,5,1.008333
692,-6216.658,4,1.006667
693,-6259.038,4,1.006667
694,-6297.686,4,1.006667
695,-6337.111,4,1.006667
696,-6376.302,4,1.006667
697,-6414.554,4,1.006667
698,-6446.101,4,1.006667
699,-6482.526,4,1.006667
700,-6521.47,4,1.006667
701,-6561.754,4,1.006667
702,-6603.743,4,1.006667
703,-6642.601,4,1.006667
704,-6685.463,4,1.006667
705,-6727.638,4,1.006667
706,-6766.521,4,1.006667
707,-6807.541,4,1.006667
708,-6849.304,4,1.006667
709,-6890.458,4,1.006667
710,-6929.863,4,1.006667
711,-6969.717,4,1.006667
712,-7010.854,4,1.006667
713,-7049.284,4,1.006667
714,-5087.026,3,1.008333
715,-5113.998,3,1.008333
716,-5139.522,3,1.008333
717,-5165.695,3,1.008333
718,-5192.157,3,1.008333
719,-5217.805,3,1.008333
720,-5243.679,3,1.008333
721,-5271.014,3,1.008333
722,-5297.445,3,1.008333
723,-5324.611,3,1.008333
724,-5352.062,3,1.008333
725,-5377.808,3,1.008333
726,-5404.417,3,1.008333
727,-5431.771,3,1.008333
728,-5458.669,3,1.008333
729,-5487,3,1.008333
730,-5514.081,3,1.008333
731,-5540.419,3,1.008333
732,-5565.875,3,1.008333
733,-5590.28,2,1.006667
734,-5612.907,2,1.006667
735,-5633.452,2,1.006667
736,-5655.567,2,1.006667
737,-5674.496,2,1.006667
738,-5693.663,2,1.006667
739,-5712.896,2,1.006667
740,-5731.266,2,1.006667
741,-5750.816,2,1.006667
742,-5769.765,2,1.006667
743,-5789.372,2,1.006667
744,-5807.92,2,1.006667
745,-5828.351,2,1.006667
746,-5847.416,2,1.006667
747,-5866.601,2,1.006667
748,-5885.706,2,1.006667
749,-5906.702,2,1.006667
750,-5925.85,2,1.006667
751,-5944.349,2,1.006667
752,-5964.464,2,1.006667
753,-5983.909,2,1.006667
754,-6002.736,2,1.006667
755,-6022.645,2,1.006667
756,-6042.502,2,1.006667
757,-6061.668,2,1.006667
758,-6080.308,2,1.006667
759,-6099.034,2,1.006667
760,-6118.556,2,1.006667
761,-6137.636,2,1.006667
762,-6156.011,2,1.006667
763,-6174.351,2,1.006667
764,-6193.12,2,1.006667
765,-6211.743,2,1.006667
766,-6225.436,1,1.005
767,-6239.938,1,1.005
768,-6253.22,1,1.005
769,-6267.034,1,1.005
770,-6280.213,1,1.005
771,-6293.605,1,1.005
772,-6307.947,1,1.005
773,-6326.078,1,1.005
774,-6340.47,1,1.005
775,-6354.128,1,1.005
776,-6367.481,1,1.005
777,-6385.076,1,1.005
778,-6402.501,1,1.005
779,-6419.544,1,1.005
780,-6437.403,1,1.005
781,-6455.101,1,1.005
782,-6472.689,1,1.005
783,-6489.715,1,1.005
784,-6506.791,1,1.005
785,-6524.733,1,1.005
786,-6543.962,1,1.005
787,-6561.321,1,1.005
788,-6578.328,1,1.005
789,-6599.516,2,1.005
790,-6622.452,2,1.005
791,-6644.883,2,1.005
792,-6668.067,2,1.005
793,-6690.334,2,1.005
794,-6714.053,2,1.005
795,-6738.75,2,1.005
796,-6764.112,2,1.005
797,-6788.507,2,1.005
798,-6814.178,2,1.005
799,-6840.298,2,1.005
800,-6865.056,2,1.005
801,-6889.736,2,1.005
802,-6915.467,2,1.005
803,-6940.648,2,1.005
804,-6975.582,2,1.005
805,-4995.014,1,1.006667
806,-5008.285,1,1.006667
807,-5021.658,1,1.006667
808,-5035.367,1,1.006667
809,-5048.984,1,1.006667
810,-5062.502,1,1.006667
811,-5076.923,1,1.006667
812,-5091.048,1,1.006667
813,-5104.916,1,1.006667
814,-5118.66,1,1.006667
815,-5132.889,1,1.006667
816,-5146.183,1,1.006667
817,-5160.339,1,1.006667
818,-5176.551,2,1.006667
819,-5195.087,2,1.006667
820,-5213.292,2,1.006667
821,-5231.609,2,1.006667
822,-5250.517,2,1.006667
823,-5269.758,2,1.006667
824,-5289.39,2,1.006667
825,-5308.151,2,1.006667
826,-5326.655,2,1.006667
827,-5346.419,2,1.006667
828,-5367.713,2,1.006667
829,-5388.875,2,1.006667
830,-5410.292,2,1.006667
831,-5432.714,2,1.006667
832,-5454.131,2,1.006667
833,-5475.96,2,1.006667
834,-5497.018,2,1.006667
835,-5522.317,2,1.006667
836,-5544.451,2,1.006667
837,-5565.554,2,1.006667
838,-5585.943,2,1.006667
839,-5607.7,2,1.006667
840,-5628.844,2,1.006667
841,-5650.846,2,1.006667
842,-5671.237,2,1.006667
843,-5692.117,2,1.006667
844,-5714.167,2,1.006667
845,-5734.555,2,1.006667
846,-5755.132,2,1.006667
847,-5777.334,2,1.006667
848,-5799.938,2,1.006667
849,-5822.23,3,1.006667
850,-5848.5,3,1.006667
851,-5875.198,3,1.006667
852,-5902.643,3,1.006667
853,-5930.338,3,1.006667
854,-5957.734,3,1.006667
855,-5984.727,3,1.006667
856,-6012.398,3,1.006667
857,-6040.222,3,1.006667
